# THIS HISTOGRAM IS BASED ON ASSUMED REDSHIFT
# r_magnitude_bins, counts
     -24.0000000000000000       0.0000000000000000
     -23.5000000000000000       1.0000000000000000
     -23.0000000000000000       1.0000000000000000
     -22.5000000000000000      23.0000000000000000
     -22.0000000000000000     105.0000000000000000
     -21.5000000000000000     398.0000000000000000
     -21.0000000000000000     905.0000000000000000
     -20.5000000000000000    1456.0000000000000000
     -20.0000000000000000    2107.0000000000000000
     -19.5000000000000000    2656.0000000000000000
     -19.0000000000000000    3401.0000000000000000
     -18.5000000000000000    4164.0000000000000000
     -18.0000000000000000    4887.0000000000000000
     -17.5000000000000000    6508.0000000000000000
     -17.0000000000000000    8416.0000000000000000
     -16.5000000000000000   10467.0000000000000000
     -16.0000000000000000   12815.0000000000000000
     -15.5000000000000000   15542.0000000000000000
     -15.0000000000000000   17310.0000000000000000
     -14.5000000000000000   16585.0000000000000000
     -14.0000000000000000   12976.0000000000000000
     -13.5000000000000000   10096.0000000000000000
     -13.0000000000000000    7777.0000000000000000
     -12.5000000000000000    6711.0000000000000000
     -12.0000000000000000    5997.0000000000000000
     -11.5000000000000000    5696.0000000000000000
     -11.0000000000000000    5121.0000000000000000
     -10.5000000000000000    3530.0000000000000000
     -10.0000000000000000    1557.0000000000000000
      -9.5000000000000000     447.0000000000000000
      -9.0000000000000000      80.0000000000000000
      -8.5000000000000000       1.0000000000000000
      -8.0000000000000000       0.0000000000000000
      -7.5000000000000000       0.0000000000000000
      -7.0000000000000000       0.0000000000000000
      -6.5000000000000000       0.0000000000000000
      -6.0000000000000000       0.0000000000000000
      -5.5000000000000000       0.0000000000000000
      -5.0000000000000000       0.0000000000000000
      -4.5000000000000000       0.0000000000000000
      -4.0000000000000000       0.0000000000000000
      -3.5000000000000000       0.0000000000000000
      -3.0000000000000000       0.0000000000000000
      -2.5000000000000000       0.0000000000000000
      -2.0000000000000000       0.0000000000000000
      -1.5000000000000000       0.0000000000000000
      -1.0000000000000000       0.0000000000000000
      -0.5000000000000000       0.0000000000000000
       0.0000000000000000       0.0000000000000000
